  time (s)              T(t) (K)              P(t) (Pa)           Kinetic En. (n.u.)     Potential En. (n.u.) Total En. (n.u.)
  0.0000e+00          101.11238428            0.00000000        2305.52887202           -0.00000000         2305.52887202 
  5.0000e-15          104.57708072            0.00000000        2384.52965646           -0.00000000         2384.52965646 
  1.0000e-14          110.35043736            0.00000000        2516.17169536           -0.00000000         2516.17169536 
  1.5000e-14          118.43691197            0.00000000        2700.55663304           -0.00000000         2700.55663304 
  2.0000e-14          128.84279364            0.00000000        2937.82787134           -0.00000000         2937.82787134 
  2.5000e-14          141.57622713            0.00000000        3228.17112416           -0.00000000         3228.17112416 
  3.0000e-14          156.64724320            0.00000000        3571.81510944           -0.00000000         3571.81510944 
  3.5000e-14          174.06779449            0.00000000        3969.03236678           -0.00000000         3969.03236678 
  4.0000e-14          193.85179616            0.00000000        4420.14018484           -0.00000000         4420.14018484 
  4.5000e-14          216.01517051            0.00000000        4925.50161834           -0.00000000         4925.50161834 
  5.0000e-14          240.57589440            0.00000000        5485.52656919           -0.00000000         5485.52656919 
  5.5000e-14          267.55404810            0.00000000        6100.67290081           -0.00000000         6100.67290081 
  6.0000e-14          296.97186398            0.00000000        6771.44754782           -0.00000000         6771.44754782 
  6.5000e-14          328.85377302            0.00000000        7498.40757654           -0.00000000         7498.40757654 
  7.0000e-14          363.22644685            0.00000000        8282.16114429           -0.00000000         8282.16114429 
  7.5000e-14          400.11883281            0.00000000        9123.36829794           -0.00000000         9123.36829794 
  8.0000e-14          439.56217898            0.00000000       10022.74154533           -0.00000000        10022.74154533 
  8.5000e-14          481.59004612            0.00000000       10981.04612712           -0.00000000        10981.04612712 
  9.0000e-14          526.23830313            0.00000000       11999.09991302           -0.00000000        11999.09991302 
  9.5000e-14          573.54510261            0.00000000       13077.77284540           -0.00000000        13077.77284540 
  1.0000e-13          623.55083344            0.00000000       14217.98585688           -0.00000000        14217.98585688 
  1.0500e-13          676.29804733            0.00000000       15420.70919697           -0.00000000        15420.70919697 
  1.1000e-13          731.83135741            0.00000000       16686.96011822           -0.00000000        16686.96011822 
  1.1500e-13          790.19730736            0.00000000       18017.79989327           -0.00000000        18017.79989327 
  1.2000e-13          851.44421127            0.00000000       19414.33016292           -0.00000000        19414.33016292 
  1.2500e-13          915.62196554            0.00000000       20877.68864739           -0.00000000        20877.68864739 
  1.3000e-13          982.78183591            0.00000000       22409.04428981           -0.00000000        22409.04428981 
  1.3500e-13         1052.97622412            0.00000000       24009.59193601           -0.00000000        24009.59193601 
  1.4000e-13         1126.25842023            0.00000000       25680.54668748           -0.00000000        25680.54668748 
  1.4500e-13         1202.68234777            0.00000000       27423.13808915           -0.00000000        27423.13808915 
  1.5000e-13         1282.30230932            0.00000000       29238.60432955           -0.00000000        29238.60432955 
  1.5500e-13         1365.17274072            0.00000000       31128.18663526           -0.00000000        31128.18663526 
  1.6000e-13         1451.34798142            0.00000000       33093.12403541           -0.00000000        33093.12403541 
  1.6500e-13         1540.88206816            0.00000000       35134.64865638           -0.00000000        35134.64865638 
  1.7000e-13         1633.82855787            0.00000000       37253.98168481           -0.00000000        37253.98168481 
  1.7500e-13         1730.24038492            0.00000000       39452.33011109           -0.00000000        39452.33011109 
  1.8000e-13         1830.16975622            0.00000000       41730.88433902           -0.00000000        41730.88433902 
  1.8500e-13         1933.66808704            0.00000000       44090.81672138           -0.00000000        44090.81672138 
  1.9000e-13         2040.78597902            0.00000000       46533.28105862           -0.00000000        46533.28105862 
  1.9500e-13         2151.57324111            0.00000000       49059.41307719           -0.00000000        49059.41307719 
  2.0000e-13         2266.07895356            0.00000000       51670.33188738           -0.00000000        51670.33188738 
  2.0500e-13         2384.35157415            0.00000000       54367.14240645           -0.00000000        54367.14240645 
  2.1000e-13         2506.43908568            0.00000000       57150.93872140           -0.00000000        57150.93872140 
  2.1500e-13         2632.38918319            0.00000000       60022.80835743           -0.00000000        60022.80835743 
  2.2000e-13         2762.24949908            0.00000000       62983.83741163           -0.00000000        62983.83741163 
  2.2500e-13         2896.06786425            0.00000000       66035.11650781           -0.00000000        66035.11650781 
  2.3000e-13         3033.89260328            0.00000000       69177.74752540           -0.00000000        69177.74752540 
  2.3500e-13         3175.77286127            0.00000000       72412.85105395           -0.00000000        72412.85105395 
  2.4000e-13         3321.75896040            0.00000000       75741.57452190           -0.00000000        75741.57452190 
  2.4500e-13         3471.90278351            0.00000000       79165.10094349           -0.00000000        79165.10094349 
  2.5000e-13         3626.25818200            0.00000000       82684.65821927           -0.00000000        82684.65821927 
  2.5500e-13         3784.88140448            0.00000000       86301.52891043           -0.00000000        86301.52891043 
  2.6000e-13         3947.83154182            0.00000000       90017.06038558           -0.00000000        90017.06038558 
  2.6500e-13         4115.17098260            0.00000000       93832.67520762           -0.00000000        93832.67520762 
  2.7000e-13         4286.96587172            0.00000000       97749.88158886           -0.00000000        97749.88158886 
  2.7500e-13         4463.28656228            0.00000000      101770.28369613           -0.00000000       101770.28369613 
  2.8000e-13         4644.20804919            0.00000000      105895.59153655           -0.00000000       105895.59153655 
  2.8500e-13         4829.81037032            0.00000000      110127.63010552           -0.00000000       110127.63010552 
  2.9000e-13         5020.17895961            0.00000000      114468.34743755           -0.00000000       114468.34743755 
  2.9500e-13         5215.40493527            0.00000000      118919.82117780           -0.00000000       118919.82117780 
  3.0000e-13         5415.58530643            0.00000000      123484.26329453           -0.00000000       123484.26329453 
  3.0500e-13         5620.82308318            0.00000000      128164.02258709           -0.00000000       128164.02258709 
  3.1000e-13         5831.22727762            0.00000000      132961.58471081           -0.00000000       132961.58471081 
  3.1500e-13         6046.91278794            0.00000000      137879.56953395           -0.00000000       137879.56953395 
  3.2000e-13         6268.00016207            0.00000000      142920.72574771           -0.00000000       142920.72574771 
  3.2500e-13         6494.61524151            0.00000000      148087.92274525           -0.00000000       148087.92274525 
  3.3000e-13         6726.88868836            0.00000000      153384.13983807           -0.00000000       153384.13983807 
  3.3500e-13         6964.95539755            0.00000000      158812.45285250           -0.00000000       158812.45285250 
  3.4000e-13         7208.95378984            0.00000000      164376.01800963           -0.00000000       164376.01800963 
  3.4500e-13         7459.02496940            0.00000000      170078.05271733           -0.00000000       170078.05271733 
  3.5000e-13         7715.31171197            0.00000000      175921.81249717           -0.00000000       175921.81249717 
  3.5500e-13         7977.95722790            0.00000000      181910.56278112           -0.00000000       181910.56278112 
  3.6000e-13         8247.10362434            0.00000000      188047.54384644           -0.00000000       188047.54384644 
  3.6500e-13         8522.88997828            0.00000000      194335.92687721           -0.00000000       194335.92687721 
  3.7000e-13         8805.44993685            0.00000000      200778.75924835           -0.00000000       200778.75924835 
  3.7500e-13         9094.90879178            0.00000000      207378.89781733           -0.00000000       207378.89781733 
  3.8000e-13         9391.38003449            0.00000000      214138.93037582           -0.00000000       214138.93037582 
  3.8500e-13         9694.96148366            0.00000000      221061.08735050           -0.00000000       221061.08735050 
  3.9000e-13        10005.73116945            0.00000000      228147.14795738           -0.00000000       228147.14795738 
  3.9500e-13        10323.74323138            0.00000000      235398.34666707           -0.00000000       235398.34666707 
  4.0000e-13        10649.02410909            0.00000000      242815.28634671           -0.00000000       242815.28634671 
  4.0500e-13        10981.56925973            0.00000000      250397.86341208           -0.00000000       250397.86341208 
  4.1000e-13        11321.34052968            0.00000000      258145.20789721           -0.00000000       258145.20789721 
  4.1500e-13        11668.26416886            0.00000000      266055.63817953           -0.00000000       266055.63817953 
  4.2000e-13        12022.22933655            0.00000000      274126.62690741           -0.00000000       274126.62690741 
  4.2500e-13        12383.08681439            0.00000000      282354.77165724           -0.00000000       282354.77165724 
  4.3000e-13        12750.64749162            0.00000000      290735.76039163           -0.00000000       290735.76039163 
  4.3500e-13        13124.67998310            0.00000000      299264.31714871           -0.00000000       299264.31714871 
  4.4000e-13        13504.90652241            0.00000000      307934.10839646           -0.00000000       307934.10839646 
  4.4500e-13        13890.99621283            0.00000000      316737.58914499           -0.00000000       316737.58914499 
  4.5000e-13        14282.55508068            0.00000000      325665.77614552           -0.00000000       325665.77614552 
  4.5500e-13        14679.11322550            0.00000000      334707.95489359           -0.00000000       334707.95489359 
  4.6000e-13        15080.11023932            0.00000000      343851.34716494           -0.00000000       343851.34716494 
  4.6500e-13        15484.88004723            0.00000000      353080.76535423           -0.00000000       353080.76535423 
  4.7000e-13        15892.63483509            0.00000000      362378.24600234           -0.00000000       362378.24600234 
  4.7500e-13        16302.44562282            0.00000000      371722.60683310           -0.00000000       371722.60683310 
  4.8000e-13        16713.21653812            0.00000000      381088.86015355           -0.00000000       381088.86015355 
  4.8500e-13        17123.65259285            0.00000000      390447.47810145           -0.00000000       390447.47810145 
  4.9000e-13        17532.22499740            0.00000000      399763.60175643           -0.00000000       399763.60175643 
  4.9500e-13        17937.13811577            0.00000000      408996.28766038           -0.00000000       408996.28766038 
  5.0000e-13        18336.29292873            0.00000000      418097.67471815           -0.00000000       418097.67471815 
  5.0500e-13        18727.22599941            0.00000000      427011.59251264           -0.00000000       427011.59251264 
  5.1000e-13        19106.99636001            0.00000000      435670.98213476           -0.00000000       435670.98213476 
  5.1500e-13        19472.02141390            0.00000000      443994.15448139           -0.00000000       443994.15448139 
  5.2000e-13        19817.93531965            0.00000000      451881.56117863           -0.00000000       451881.56117863 
  5.2500e-13        20139.61773135            0.00000000      459216.44990718           -0.00000000       459216.44990718 
  5.3000e-13        20431.54962165            0.00000000      465872.97775540           -0.00000000       465872.97775540 
  5.3500e-13        20688.50597483            0.00000000      471732.00575983           -0.00000000       471732.00575983 
  5.4000e-13        20906.21496000            0.00000000      476696.12914175           -0.00000000       476696.12914175 
  5.4500e-13        21081.29641866            0.00000000      480688.27472091           -0.00000000       480688.27472091 
  5.5000e-13        21210.21312580            0.00000000      483627.78794188           -0.00000000       483627.78794188 
  5.5500e-13        21288.18709920            0.00000000      485405.72294185           -0.00000000       485405.72294185 
  5.6000e-13        21309.72992471            0.00000000      485896.93483979           -0.00000000       485896.93483979 
  5.6500e-13        21270.93363482            0.00000000      485012.31554107           -0.00000000       485012.31554107 
  5.7000e-13        21171.83313402            0.00000000      482752.66092552           -0.00000000       482752.66092552 
  5.7500e-13        21016.60955349            0.00000000      479213.30766967           -0.00000000       479213.30766967 
  5.8000e-13        20809.47327183            0.00000000      474490.25933877           -0.00000000       474490.25933877 
  5.8500e-13        20550.82065480            0.00000000      468592.55372492           -0.00000000       468592.55372492 
  5.9000e-13        20239.35213804            0.00000000      461490.55862096           -0.00000000       461490.55862096 
  5.9500e-13        19876.54643967            0.00000000      453217.99123489           -0.00000000       453217.99123489 
  6.0000e-13        19470.03592033            0.00000000      443948.88195823           -0.00000000       443948.88195823 
  6.0500e-13        19032.29485900            0.00000000      433967.66489434           -0.00000000       433967.66489434 
  6.1000e-13        18578.47680729            0.00000000      423619.86597440           -0.00000000       423619.86597440 
  6.1500e-13        18122.72385598            0.00000000      413227.94815707           -0.00000000       413227.94815707 
  6.2000e-13        17671.71122389            0.00000000      402944.11742436           -0.00000000       402944.11742436 
  6.2500e-13        17229.58133640            0.00000000      392862.82789649           -0.00000000       392862.82789649 
  6.3000e-13        16803.90537164            0.00000000      383156.71490276           -0.00000000       383156.71490276 
  6.3500e-13        16413.96490978            0.00000000      374265.43022405           -0.00000000       374265.43022405 
  6.4000e-13        16078.17508784            0.00000000      366608.86930987           -0.00000000       366608.86930987 
  6.4500e-13        15800.62821588            0.00000000      360280.34356921           -0.00000000       360280.34356921 
  6.5000e-13        15572.73604972            0.00000000      355084.02689111           -0.00000000       355084.02689111 
  6.5500e-13        15385.27190172            0.00000000      350809.53560341           -0.00000000       350809.53560341 
  6.6000e-13        15245.04772382            0.00000000      347612.19342829           -0.00000000       347612.19342829 
  6.6500e-13        15153.13353818            0.00000000      345516.39863257           -0.00000000       345516.39863257 
  6.7000e-13        15111.32622793            0.00000000      344563.12311118           -0.00000000       344563.12311118 
  6.7500e-13        15146.59833194            0.00000000      345367.38516830           -0.00000000       345367.38516830 
  6.8000e-13        15266.82790886            0.00000000      348108.81751435           -0.00000000       348108.81751435 
  6.8500e-13        15454.92120808            0.00000000      352397.65448593           -0.00000000       352397.65448593 
  6.9000e-13        15710.29700158            0.00000000      358220.64312688           -0.00000000       358220.64312688 
  6.9500e-13        16061.87269412            0.00000000      366237.14788653           -0.00000000       366237.14788653 
  7.0000e-13        16468.00840453            0.00000000      375497.71090233           -0.00000000       375497.71090233 
  7.0500e-13        16887.42467855            0.00000000      385061.09263868           -0.00000000       385061.09263868 
  7.1000e-13        17281.46689060            0.00000000      394045.90397662           -0.00000000       394045.90397662 
  7.1500e-13        17674.98299524            0.00000000      403018.71919892           -0.00000000       403018.71919892 
  7.2000e-13        18135.78283066            0.00000000      413525.71428504           -0.00000000       413525.71428504 
  7.2500e-13        18656.10058568            0.00000000      425389.81595124           -0.00000000       425389.81595124 
  7.3000e-13        19107.52854797            0.00000000      435683.11689670           -0.00000000       435683.11689670 
  7.3500e-13        19442.00040780            0.00000000      443309.62610416           -0.00000000       443309.62610416 
  7.4000e-13        19781.05136157            0.00000000      451040.54619436           -0.00000000       451040.54619436 
  7.4500e-13        20247.54894661            0.00000000      461677.45935472           -0.00000000       461677.45935472 
  7.5000e-13        20737.18046264            0.00000000      472841.86423833           -0.00000000       472841.86423833 
  7.5500e-13        21125.93500619            0.00000000      481706.10802671           -0.00000000       481706.10802671 
  7.6000e-13        21496.26831397            0.00000000      490150.31730358           -0.00000000       490150.31730358 
  7.6500e-13        21862.41484851            0.00000000      498499.06125601           -0.00000000       498499.06125601 
  7.7000e-13        22144.28976671            0.00000000      504926.27357851           -0.00000000       504926.27357851 
  7.7500e-13        22421.44686586            0.00000000      511245.91185750           -0.00000000       511245.91185750 
  7.8000e-13        22678.49172048            0.00000000      517106.95784058           -0.00000000       517106.95784058 
  7.8500e-13        22872.39441266            0.00000000      521528.25853846           -0.00000000       521528.25853846 
  7.9000e-13        23024.10200379            0.00000000      524987.44144618           -0.00000000       524987.44144618 
  7.9500e-13        23102.51511754            0.00000000      526775.38956912           -0.00000000       526775.38956912 
  8.0000e-13        23136.23504733            0.00000000      527544.25949779           -0.00000000       527544.25949779 
